Latitude (deg),Longitude (deg),Altitude (m),Time (s)
39.886016,116.310389,-9.31322574615479E-10,0
39.8860087600651,116.310367589796,-1.08089298009872E-05,0.1
39.8859979001352,116.310335474439,-2.58469954133034E-05,0.2
39.8859870402001,116.310303359103,-3.94741073250771E-05,0.3
39.8859761802561,116.310271243778,-5.16930595040321E-05,0.4
39.8859653203032,116.310239128462,-6.2502920627594E-05,0.5
39.8859544603414,116.310207013156,-7.19018280506134E-05,0.6
39.8859436003706,116.310174897861,-7.98897817730904E-05,0.7
39.885932740391,116.310142782576,-8.64695757627487E-05,0.8
39.8859218804024,116.310110667301,-9.16356220841408E-05,0.9
39.8859110204049,116.310078552036,-9.53953713178635E-05,1
39.8859001603985,116.310046436781,-9.77432355284691E-05,1.1
39.8858893003831,116.310014321537,-9.86829400062561E-05,1.2
39.885878440359,116.309982206302,-9.82098281383514E-05,1.3
39.8858675803258,116.309950091077,-9.63266938924789E-05,1.4
39.8858567202838,116.309917975863,-9.30363312363625E-05,1.5
39.8858458602328,116.309885860659,-8.83340835571289E-05,1.6
39.8858350001729,116.309853745465,-8.22218134999275E-05,1.7
39.8858241401041,116.309821630281,-7.47013837099075E-05,1.8
39.8858132800264,116.309789515107,-6.57709315419197E-05,1.9
39.8858024199398,116.309757399944,-5.54313883185387E-05,2
39.8857915598443,116.309725284791,-4.36799600720406E-05,2.1
39.8857806997398,116.309693169647,-3.05185094475746E-05,2.2
39.8857698396265,116.309661054513,-1.59498304128647E-05,2.3
39.8857589757293,116.309628941545,-6.51925802230835E-09,2.4
39.8857461566322,116.309598067311,-3.20561230182648E-06,2.5
39.885733337527,116.309567193088,-4.99188899993896E-06,2.6
39.8857205184135,116.309536318876,-5.37093728780746E-06,2.7
39.8857076992918,116.309505444677,-4.33623790740967E-06,2.8
39.8856948801619,116.309474570488,-1.89431011676788E-06,2.9
39.8856829318266,116.309443133293,-2.53599137067795E-06,3
39.8856719979308,116.309411060417,-6.98026269674301E-06,3.1
39.885661064026,116.309378987552,-1.00145116448402E-05,3.2
39.8856501301124,116.309346914697,-1.16387382149696E-05,3.3
39.8856391961899,116.309314841852,-1.1855736374855E-05,3.4
39.8856282622584,116.309282769018,-1.06599181890488E-05,3.5
39.8856173283182,116.309250696193,-8.05407762527466E-06,3.6
39.885606394369,116.309218623379,-4.03914600610733E-06,3.7
39.8855950616403,116.30918679496,-9.08970832824707E-07,3.8
39.8855824202722,116.309155797565,-3.94601374864578E-06,3.9
39.8855697788958,116.30912480018,-5.57489693164825E-06,4
39.885557137511,116.309093802807,-5.79375773668289E-06,4.1
39.885544496118,116.309062805446,-4.60166484117508E-06,4.2
39.8855318547166,116.309031808095,-2.00048089027405E-06,4.3
39.8855180847886,116.309001670654,-1.3299286365509E-06,4.4
39.8855029923914,116.308972579476,-3.20374965667725E-06,4.5
39.8854878999867,116.30894348831,-3.66475433111191E-06,4.6
39.8854728075748,116.308914397158,-2.71666795015335E-06,4.7
39.8854577162222,116.308885305137,-3.7066638469696E-07,4.8
39.8854442316224,116.308854915808,-1.61677598953247E-05,4.9
39.8854309578824,116.308824367147,-3.30721959471703E-05,5
39.8854176841343,116.308793818497,-4.85684722661972E-05,5.1
39.8854044103782,116.30876326986,-6.26528635621071E-05,5.2
39.885391136614,116.308732721233,-7.53281638026237E-05,5.3
39.8853778628417,116.30870217262,-8.6592510342598E-05,5.4
39.8853645890613,116.308671624017,-9.64431092143059E-05,5.5
39.8853513152729,116.308641075426,-0.00010488647967577,5.6
39.8853380414763,116.308610526847,-0.000111919827759266,5.7
39.8853247676717,116.30857997828,-0.00011754222214222,5.8
39.885311493859,116.308549429725,-0.000121753662824631,5.9
39.8852982200384,116.308518881181,-0.000124555081129074,6
39.8852849462095,116.30848833265,-0.0001259446144104,6.1
39.8852716723726,116.308457784129,-0.000125925056636333,6.2
39.8852583985276,116.308427235621,-0.000124494545161724,6.3
39.8852451246745,116.308396687125,-0.000121654011309147,6.4
39.8852318508133,116.30836613864,-0.000117401592433453,6.5
39.8852185769442,116.308335590167,-0.000111737288534641,6.6
39.8852053030669,116.308305041707,-0.000104664824903011,6.7
39.8851920291815,116.308274493257,-9.61823388934135E-05,6.8
39.8851787552881,116.308243944819,-8.62870365381241E-05,6.9
39.8851654813866,116.308213396394,-7.49854370951653E-05,7
39.885152207477,116.308182847979,-6.22682273387909E-05,7.1
39.8851389335594,116.308152299578,-4.81437891721725E-05,7.2
39.8851256596336,116.308121751187,-3.26065346598625E-05,7.3
39.8851123856997,116.308091202809,-1.56601890921593E-05,7.4
39.8850991099,116.308060655799,-9.21078026294708E-07,7.5
39.8850858228991,116.308030117006,-6.59748911857605E-06,7.6
39.8850725358903,116.307999578223,-1.08620151877403E-05,7.7
39.8850592488731,116.307969039454,-1.37165188789368E-05,7.8
39.885045961848,116.307938500695,-1.516193151474E-05,7.9
39.8850326748149,116.30790796195,-1.51945278048515E-05,8
39.8850193877737,116.307877423215,-1.38161703944206E-05,8.1
39.8850061007244,116.307846884492,-1.10315158963203E-05,8.2
39.884992813667,116.307816345781,-6.83404505252838E-06,8.3
39.8849795266102,116.307785807075,-1.2516975402832E-06,8.4
39.8849662536109,116.307755258075,-3.74121591448784E-05,8.5
39.8849529839202,116.307724706662,-8.2334503531456E-05,8.6
39.8849397142215,116.307694155259,-0.000125845894217491,8.7
39.8849264445148,116.307663603869,-0.000167944468557835,8.8
39.8849131748,116.307633052489,-0.000208633951842785,8.9
39.8848999050771,116.307602501123,-0.000247913412749767,9
39.8848866353461,116.307571949767,-0.000285782851278782,9.1
39.884873365607,116.307541398423,-0.000322240404784679,9.2
39.8848600958599,116.307510847092,-0.000357287935912609,9.3
39.8848468261047,116.307480295771,-0.000390926375985146,9.4
39.8848335563414,116.307449744464,-0.000423152931034565,9.5
39.88482028657,116.307419193167,-0.000453967601060867,9.6
39.8848070167905,116.307388641883,-0.000483373180031776,9.7
39.884793747003,116.30735809061,-0.000511369667947292,9.8
39.8847804772075,116.307327539349,-0.000537953339517117,9.9
39.8847672074037,116.307296988099,-0.000563126988708973,10
39.884753937592,116.307266436862,-0.000586893409490585,10.1
39.8847406677721,116.307235885636,-0.000609247013926506,10.2
39.8847273979442,116.307205334423,-0.000630189664661884,10.3
39.8847141281082,116.30717478322,-0.000649724155664444,10.4
39.8847008582641,116.307144232029,-0.000667843967676163,10.5
39.884687588412,116.307113680851,-0.000684553757309914,10.6
39.8846743185517,116.307083129684,-0.000699856318533421,10.7
39.8846610486834,116.307052578529,-0.000713745132088661,10.8
39.8846477788071,116.307022027386,-0.000726227648556232,10.9
39.8846345089226,116.306991476255,-0.000737296417355537,11
39.88462123903,116.306960925134,-0.000746955163776875,11.1
39.8846079691294,116.306930374027,-0.000755203887820244,11.2
39.8845946992207,116.30689982293,-0.00076204352080822,11.3
39.8845814293039,116.306869271847,-0.00076746940612793,11.4
39.8845681593791,116.306838720773,-0.000771488063037395,11.5
39.8845548894461,116.306808169713,-0.000774092972278595,11.6
39.8845416195051,116.306777618664,-0.00077529065310955,11.7
39.884528349556,116.306747067626,-0.000775075517594814,11.8
39.8845150795989,116.306716516601,-0.00077345222234726,11.9
39.8845018096336,116.306685965587,-0.000770416110754013,12
39.8844885396603,116.306655414585,-0.000765970908105373,12.1
39.8844752696788,116.306624863595,-0.000760113820433617,12.2
39.8844619996894,116.306594312617,-0.000752850435674191,12.3
39.8844487296919,116.30656376165,-0.000744172371923923,12.4
39.8844354596862,116.306533210696,-0.000734084285795689,12.5
39.8844221896725,116.306502659752,-0.000722586177289486,12.6
39.8844089196507,116.306472108822,-0.000709676183760166,12.7
39.8843956496208,116.306441557902,-0.000695358030498028,12.8
39.8843823795829,116.306411006994,-0.000679627060890198,12.9
39.8843691095368,116.306380456098,-0.000662487000226974,13
39.8843558394827,116.306349905215,-0.000643935054540634,13.1
39.8843425694205,116.306319354342,-0.000623974017798901,13.2
39.8843292993503,116.306288803481,-0.000602600164711475,13.3
39.8843160292719,116.306258252632,-0.000579817220568657,13.4
39.8843027591855,116.306227701795,-0.000555622391402721,13.5
39.884289489091,116.30619715097,-0.000530018471181393,13.6
39.8842762189884,116.306166600156,-0.000503004528582096,13.7
39.8842629488778,116.306136049355,-0.000474578700959682,13.8
39.8842496787591,116.306105498565,-0.000444742850959301,13.9
39.8842364086322,116.306074947787,-0.000413496047258377,14
39.8842231384973,116.30604439702,-0.00038084015250206,14.1
39.8842098683543,116.306013846266,-0.0003467733040452,14.2
39.8841965982034,116.305983295523,-0.000311295501887798,14.3
39.8841833280442,116.305952744793,-0.000274406746029854,14.4
39.884170057877,116.305922194073,-0.000236107967793941,14.5
39.8841567877017,116.305891643365,-0.000196397304534912,14.6
39.8841435175183,116.30586109267,-0.000155278481543064,14.7
39.884130247327,116.305830541985,-0.000112748704850674,14.8
39.8841169771275,116.305799991314,-6.880983710289E-05,14.9
39.8841037069198,116.305769440653,-2.34572216868401E-05,15
39.8840901488019,116.305739105867,-1.08331441879272E-05,15.1
39.8840762971764,116.305708993207,-3.16808000206947E-05,15.2
39.8840624455431,116.305678880557,-5.11184334754944E-05,15.3
39.8840485939019,116.305648767921,-6.91413879394531E-05,15.4
39.8840347422528,116.305618655297,-8.57589766383171E-05,15.5
39.884020890596,116.305588542685,-0.000100962817668915,15.6
39.8840070389312,116.305558430085,-0.000114758498966694,15.7
39.8839931872586,116.305528317497,-0.000127141363918781,15.8
39.8839793355782,116.305498204921,-0.000138114206492901,15.9
39.8839654838899,116.305468092357,-0.000147677958011627,16
39.8839516321938,116.305437979806,-0.000155828893184662,16.1
39.8839377804898,116.305407867266,-0.000162570737302303,16.2
39.8839239287779,116.305377754738,-0.000167902559041977,16.3
39.8839100770583,116.305347642223,-0.000171823427081108,16.4
39.8838962253307,116.30531752972,-0.000174332410097122,16.5
39.8838823735953,116.305287417229,-0.000175430439412594,16.6
39.8838685218521,116.30525730475,-0.000175120308995247,16.7
39.883854670101,116.305227192284,-0.000173399224877357,16.8
39.8838408183421,116.305197079829,-0.000170267187058926,16.9
39.8838269665752,116.305166967387,-0.000165726058185101,17
39.8838131148005,116.305136854956,-0.000159773044288158,17.1
39.8837992630181,116.305106742538,-0.000152410008013248,17.2
39.8837854112277,116.305076630131,-0.000143635086715221,17.3
39.8837715594295,116.305046517737,-0.000133452005684376,17.4
39.8837577076235,116.305016405355,-0.000121855176985264,17.5
39.8837438558095,116.304986292986,-0.000108851119875908,17.6
39.8837300039878,116.304956180628,-9.44351777434349E-05,17.7
39.8837161521582,116.304926068283,-7.86082819104195E-05,17.8
39.8837023003207,116.304895955949,-6.1369501054287E-05,17.9
39.8836884484754,116.304865843628,-4.27244231104851E-05,18
39.8836745966222,116.304835731319,-2.26628035306931E-05,18.1
39.8836607443745,116.304805619326,-1.22655183076859E-06,18.2
39.8836465545777,116.304775773387,-6.45965337753296E-06,18.3
39.883632345236,116.304745943069,-1.19153410196304E-05,18.4
39.8836181358864,116.304716112763,-1.59610062837601E-05,18.5
39.8836039265292,116.30468628247,-1.85957178473473E-05,18.6
39.8835897171643,116.30465645219,-1.9819475710392E-05,18.7
39.8835755077917,116.304626621921,-1.96313485503197E-05,18.8
39.8835612984114,116.304596791665,-1.80350616574287E-05,18.9
39.8835470890232,116.304566961421,-1.50259584188461E-05,19
39.8835328796275,116.304537131189,-1.06059014797211E-05,19.1
39.8835186702241,116.30450730097,-4.77395951747894E-06,19.2
39.8835044514374,116.304477478296,-2.30316072702408E-06,19.3
39.8834902126724,116.304447671688,-8.57561826705933E-06,19.4
39.8834759738996,116.304417865092,-1.34389847517014E-05,19.5
39.8834617351191,116.304388058509,-1.68932601809502E-05,19.6
39.8834474963309,116.304358251937,-1.89347192645073E-05,19.7
39.8834332575351,116.304328445379,-1.95680186152458E-05,19.8
39.8834190187315,116.304298638833,-1.87885016202927E-05,19.9
39.8834047799203,116.304268832298,-1.65980309247971E-05,20
39.8833905411013,116.304239025776,-1.29956752061844E-05,20.1
39.8833763022747,116.304209219267,-7.98795372247696E-06,20.2
39.8833620639386,116.304179412377,-1.57300382852554E-06,20.3
39.8833486755925,116.304148953144,-6.21378421783447E-06,20.4
39.8833355223883,116.304118317688,-1.28708779811859E-05,20.5
39.883322369176,116.304087682245,-1.81207433342934E-05,20.6
39.8833092159555,116.304057046812,-2.19587236642838E-05,20.7
39.883296062727,116.304026411391,-2.43876129388809E-05,20.8
39.8832829094903,116.303995775983,-2.54018232226372E-05,20.9
39.8832697562454,116.303965140586,-2.50088050961494E-05,21
39.8832566029926,116.303934505201,-2.32076272368431E-05,21.1
39.8832434497315,116.303903869827,-1.99936330318451E-05,21.2
39.8832302964623,116.303873234464,-1.53686851263046E-05,21.3
39.8832171431851,116.303842599115,-9.33278352022171E-06,21.4
39.8832039900351,116.303811963678,-1.89617276191711E-06,21.5
39.883191072916,116.303781159843,-5.17815351486206E-06,21.6
39.8831782255447,116.303750306565,-1.06282532215118E-05,21.7
39.8831653781651,116.303719453298,-1.46673992276192E-05,21.8
39.8831525307774,116.303688600044,-1.72974541783333E-05,21.9
39.8831396833814,116.3036577468,-1.85165554285049E-05,22
39.8831268359772,116.303626893569,-1.83247029781342E-05,22.1
39.8831139885647,116.303596040349,-1.67218968272209E-05,22.2
39.8831011411439,116.30356518714,-1.37118622660637E-05,22.3
39.883088293715,116.303534333943,-9.28808003664017E-06,22.4
39.8830754462778,116.303503480757,-3.45706939697266E-06,22.5
39.8830619218401,116.303473130316,-3.01934778690338E-06,22.6
39.8830477196177,116.303443294538,-8.01589339971542E-06,22.7
39.8830335173875,116.303413458774,-1.16042792797089E-05,22.8
39.8830193151497,116.303383623021,-1.37779861688614E-05,22.9
39.8830051129042,116.30335378728,-1.45444646477699E-05,23
39.882990910651,116.303323951552,-1.39009207487106E-05,23.1
39.88297670839,116.303294115836,-1.18473544716835E-05,23.2
39.8829625061213,116.303264280132,-8.38097184896469E-06,23.3
39.882948303845,116.303234444441,-3.50549817085266E-06,23.4
39.8829341106999,116.303204601436,-1.8412247300148E-06,23.5
39.882919930416,116.303174748137,-5.27594238519669E-06,23.6
39.8829057501244,116.303144894851,-7.29877501726151E-06,23.7
39.8828915698251,116.303115041576,-7.91065394878387E-06,23.8
39.882877389518,116.303085188315,-7.11157917976379E-06,23.9
39.8828632092032,116.303055335066,-4.90434467792511E-06,24
39.8828490289742,116.303025481753,-1.29267573356628E-06,24.1
39.8828351445607,116.302995396178,-1.98837369680405E-05,24.2
39.8828213778257,116.302965218543,-4.64487820863724E-05,24.3
39.8828076110829,116.302935040921,-7.16010108590126E-05,24.4
39.8827938443322,116.302904863309,-9.53441485762596E-05,24.5
39.8827800775737,116.302874685711,-0.000117676332592964,24.6
39.8827663108073,116.302844508125,-0.000138599425554276,24.7
39.882752544033,116.30281433055,-0.000158108770847321,24.8
39.8827387772508,116.302784152988,-0.000176209025084972,24.9
39.8827250104606,116.302753975438,-0.000192899256944656,25
39.8827112436626,116.302723797899,-0.000208179466426373,25.1
39.8826974768569,116.302693620373,-0.000222046859562397,25.2
39.8826837100431,116.302663442859,-0.000234506092965603,25.3
39.8826699432215,116.302633265358,-0.000245556235313416,25.4
39.8826561763919,116.302603087868,-0.000255188904702663,25.5
39.8826424095545,116.30257291039,-0.000263419933617115,25.6
39.8826286427093,116.302542732924,-0.000270235352218151,25.7
39.8826148758561,116.30251255547,-0.000275641679763794,25.8
39.882601108995,116.302482378029,-0.000279637053608894,25.9
39.8825873421261,116.302452200599,-0.000282220542430878,26
39.8825735752492,116.302422023182,-0.000283395871520042,26.1
39.8825598083646,116.302391845777,-0.000283157452940941,26.2
39.882546041472,116.302361668384,-0.00028151273727417,26.3
39.8825322745715,116.302331491002,-0.000278451479971409,26.4
39.8825185076631,116.302301313632,-0.000273983925580978,26.5
39.882504740747,116.302271136276,-0.00026810634881258,26.6
39.8824909738228,116.302240958931,-0.000260817818343639,26.7
39.8824772068908,116.302210781598,-0.000252115540206432,26.8
39.8824634399509,116.302180604277,-0.000242005102336407,26.9
39.8824496730031,116.302150426967,-0.000230484642088413,27
39.8824359060475,116.302120249671,-0.000217553228139877,27.1
39.882422139084,116.302090072386,-0.000203212723135948,27.2
39.8824083721125,116.302059895114,-0.000187456607818604,27.3
39.8823946051332,116.302029717853,-0.000170294195413589,27.4
39.8823808381459,116.301999540605,-0.000151720829308033,27.5
39.8823670711509,116.301969363368,-0.000131734646856785,27.6
39.8823533041479,116.301939186144,-0.000110339373350143,27.7
39.8823395371371,116.301909008932,-8.75350087881088E-05,27.8
39.8823257701183,116.301878831732,-6.33168965578079E-05,27.9
39.8823120030917,116.301848654544,-3.7691555917263E-05,28
39.8822982360571,116.301818477368,-1.06543302536011E-05,28.1
39.8822844749074,116.301788295682,-3.95337119698524E-05,28.2
39.8822707173635,116.301758111226,-0.000102188438177109,28.3
39.8822569598118,116.301727926782,-0.000163430348038673,28.4
39.8822432022521,116.301697742351,-0.000223268754780293,28.5
39.8822294446846,116.301667557932,-0.000281690619885921,28.6
39.8822156871091,116.301637373525,-0.000338703393936157,28.7
39.8822019295259,116.30160718913,-0.000394305214285851,28.8
39.8821881719347,116.301577004746,-0.000448496080935001,28.9
39.8821744143355,116.301546820375,-0.000501278787851334,29
39.8821606567286,116.301516636017,-0.000552650541067123,29.1
39.8821468991137,116.30148645167,-0.000602609477937222,29.2
39.882133141491,116.301456267335,-0.000651157461106777,29.3
39.8821193838604,116.301426083013,-0.000698300078511238,29.4
39.8821056262219,116.301395898702,-0.000744028948247433,29.5
39.8820918685754,116.301365714403,-0.000788345001637936,29.6
39.8820781109211,116.301335530116,-0.000831251032650471,29.7
39.882064353259,116.301305345842,-0.000872749835252762,29.8
39.8820505955889,116.30127516158,-0.000912835821509361,29.9
39.8820368379109,116.30124497733,-0.000951509922742844,30
39.8820230802251,116.301214793091,-0.000988774932920933,30.1
39.8820093225313,116.301184608864,-0.00102462898939848,30.2
39.8819955648296,116.30115442465,-0.00105907209217548,30.3
39.8819818071201,116.301124240448,-0.00109210703521967,30.4
39.8819680494028,116.301094056259,-0.00112373009324074,30.5
39.8819542916774,116.301063872081,-0.00115394126623869,30.6
39.8819405339442,116.301033687915,-0.0011827414855361,30.7
39.8819267762032,116.30100350376,-0.00121013354510069,30.8
39.8819130184542,116.300973319619,-0.00123611371964216,30.9
39.8818992606974,116.300943135489,-0.00126068200916052,31
39.8818855029327,116.300912951372,-0.00128384027630091,31.1
39.8818717451601,116.300882767266,-0.0013055894523859,31.2
39.8818579873795,116.300852583173,-0.00132592767477036,31.3
39.8818442295911,116.300822399091,-0.00134485214948654,31.4
39.8818304717949,116.300792215021,-0.00136236753314734,31.5
39.8818167139907,116.300762030964,-0.00137847661972046,31.6
39.8818029561786,116.300731846919,-0.00139317009598017,31.7
39.8817891983587,116.300701662886,-0.00140645634382963,31.8
39.8817754405309,116.300671478865,-0.00141832884401083,31.9
39.8817616826951,116.300641294855,-0.00142879318445921,32
39.8817479248515,116.300611110858,-0.0014378447085619,32.1
39.8817341670001,116.300580926874,-0.00144548527896404,32.2
39.8817204091407,116.300550742901,-0.00145171768963337,32.3
39.8817066512734,116.30052055894,-0.00145654007792473,32.4
39.8816928933983,116.300490374992,-0.0014599496498704,32.5
