Latitude (deg),Longitude (deg),Altitude (m),Time (s)
43.08303,-77.67566,0,0
43.0830299272104,-77.6756605396474,-1.71363353729248E-07,0.1
43.0830297088478,-77.6756621585818,-6.72414898872375E-07,0.2
43.0830294188426,-77.6756643185805,-1.33272260427475E-06,0.3
43.0830291288478,-77.6756664685818,-1.99209898710251E-06,0.4
43.0830288388426,-77.6756686285805,-2.65240669250488E-06,0.5
43.0830285488478,-77.6756707785818,-3.30246984958649E-06,0.6
43.0830282588426,-77.6756729385805,-3.94321978092194E-06,0.7
43.0830279688478,-77.6756750885818,-4.58210706710815E-06,0.8
43.0830276788426,-77.6756772485805,-5.22192567586899E-06,0.9
43.0830273888426,-77.6756793985805,-5.85149973630905E-06,1
43.0830270988478,-77.6756815485818,-6.47176057100296E-06,1.1
43.0830268088426,-77.6756837085805,-7.09481537342072E-06,1.2
43.0830265188478,-77.6756858585818,-7.71321356296539E-06,1.3
43.0830262288426,-77.6756880185805,-8.32322984933853E-06,1.4
43.0830259388478,-77.6756901685818,-8.9230015873909E-06,1.5
43.0830256488426,-77.6756923285805,-9.5246359705925E-06,1.6
43.0830253588426,-77.6756944785805,-1.01011246442795E-05,1.7
43.0830250688478,-77.6756966285818,-1.07027590274811E-05,1.8
43.0830247788426,-77.6756987885805,-1.13015994429588E-05,1.9
43.0830244888478,-77.6757009385818,-1.19032338261604E-05,2
43.0830241988426,-77.6757030985805,-1.24014914035797E-05,2.1
43.0830239088478,-77.6757052485818,-1.30040571093559E-05,2.2
43.0830236188426,-77.6757074085805,-1.36019662022591E-05,2.3
43.0830233288478,-77.6757095585818,-1.41039490699768E-05,2.4
43.0830230388426,-77.6757117185805,-1.47018581628799E-05,2.5
43.0830227488426,-77.6757138685805,-1.52029097080231E-05,2.6
43.0830224588478,-77.6757160185818,-1.58026814460754E-05,2.7
43.0830221688426,-77.6757181785805,-1.63018703460693E-05,2.8
43.0830218788478,-77.6757203285818,-1.69025734066963E-05,2.9
43.0830215888426,-77.6757224885805,-1.74017623066902E-05,3
43.0830212988478,-77.6757246385818,-1.79028138518333E-05,3.1
43.0830210088426,-77.6757267985805,-1.84029340744019E-05,3.2
43.0830207188478,-77.6757289485818,-1.90036371350288E-05,3.3
43.0830204288426,-77.6757311085805,-1.95018947124481E-05,3.4
43.0830201388426,-77.6757332585805,-2.00020149350166E-05,3.5
43.0830198488478,-77.6757354085818,-2.05021351575851E-05,3.6
43.0830195588426,-77.6757375685805,-2.10031867027283E-05,3.7
43.0830192688478,-77.6757397185818,-2.15014442801476E-05,3.8
43.0830189788041,-77.6757418785707,-2.19019129872322E-05,3.9
43.0830186788478,-77.6757440285818,-2.24020332098007E-05,4
43.0830183888426,-77.6757461885805,-2.29012221097946E-05,4.1
43.0830180988426,-77.6757483385805,-2.34013423323631E-05,4.2
43.0830178088478,-77.6757504885818,-2.38027423620224E-05,4.3
43.0830175188426,-77.6757526485805,-2.43009999394417E-05,4.4
43.0830172288478,-77.6757547985818,-2.48020514845848E-05,4.5
43.0830169388426,-77.6757569585805,-2.51997262239456E-05,4.6
43.0830166488478,-77.6757591085818,-2.56020575761795E-05,4.7
43.0830163588426,-77.6757612685805,-2.6102177798748E-05,4.8
43.0830160688478,-77.6757634185818,-2.65017151832581E-05,4.9
43.0830157788426,-77.6757655785805,-2.7000904083252E-05,5
43.0830154888426,-77.6757677285805,-2.74023041129112E-05,5.1
43.0830151988478,-77.6757698785818,-2.78009101748466E-05,5.2
43.0830149088426,-77.6757720385805,-2.82023102045059E-05,5.3
43.0830146188478,-77.6757741885818,-2.86009162664413E-05,5.4
43.0830143288426,-77.6757763485805,-2.90023162961006E-05,5.5
43.0830140388478,-77.6757784985818,-2.94018536806107E-05,5.6
43.0830137488426,-77.6757806585805,-2.98013910651207E-05,5.7
43.0830134588478,-77.6757828085818,-3.02009284496307E-05,5.8
43.0830131688426,-77.6757849685805,-3.06013971567154E-05,5.9
43.0830128788426,-77.6757871185805,-3.10018658638E-05,6
43.0830125888478,-77.6757892685818,-3.14023345708847E-05,6.1
43.0830122988426,-77.6757914285805,-3.17022204399109E-05,6.2
43.0830120088478,-77.6757935785818,-3.21008265018463E-05,6.3
43.0830117188426,-77.6757957385805,-3.25022265315056E-05,6.4
43.0830114288478,-77.6757978885818,-3.28021124005318E-05,6.5
43.0830111388426,-77.6758000485805,-3.32016497850418E-05,6.6
43.0830108482641,-77.6758022028697,-3.3501535654068E-05,6.7
43.0830105582719,-77.6758043528717,-3.39038670063019E-05,6.8
43.0830102682641,-77.6758065128697,-3.42009589076042E-05,6.9
43.0830099782719,-77.6758086628717,-3.45027074217796E-05,7
43.0830096882641,-77.6758108228697,-3.48025932908058E-05,7.1
43.0830093982719,-77.6758129728717,-3.52002680301666E-05,7.2
43.0830091082641,-77.6758151328697,-3.55029478669167E-05,7.3
43.0830088182719,-77.6758172828717,-3.58019024133682E-05,7.4
43.0830085282641,-77.6758194428697,-3.61008569598198E-05,7.5
43.0830082382641,-77.6758215928697,-3.64026054739952E-05,7.6
43.0830079482718,-77.6758237428717,-3.66996973752975E-05,7.7
43.0830076582641,-77.6758259028697,-3.70005145668983E-05,7.8
43.0830073682719,-77.6758280528717,-3.73022630810738E-05,7.9
43.0830070782641,-77.6758302128697,-3.76012176275253E-05,8
43.0830067882719,-77.6758323628717,-3.78033146262169E-05,8.1
43.0830064982641,-77.6758345228697,-3.81004065275192E-05,8.2
43.0830062082719,-77.6758366728717,-3.84021550416946E-05,8.3
43.0830059182641,-77.6758388328697,-3.86014580726624E-05,8.4
43.0830056282641,-77.6758409828697,-3.89013439416885E-05,8.5
43.0830053382718,-77.6758431328717,-3.91015782952309E-05,8.6
43.0830050482641,-77.6758452928697,-3.94005328416824E-05,8.7
43.0830047582719,-77.6758474428717,-3.9602629840374E-05,8.8
43.0830044682641,-77.6758496028697,-3.99015843868256E-05,8.9
43.0830041782719,-77.6758517528717,-4.0099024772644E-05,9
43.0830038882641,-77.6758539128697,-4.03011217713356E-05,9.1
43.0830035982719,-77.6758560628717,-4.05013561248779E-05,9.2
43.0830033082641,-77.6758582228697,-4.08012419939041E-05,9.3
43.0830030182641,-77.6758603728697,-4.10014763474464E-05,9.4
43.0830027282719,-77.6758625228717,-4.12007793784142E-05,9.5
43.0830024382641,-77.6758646828697,-4.14010137319565E-05,9.6
43.0830021482718,-77.6758668328717,-4.16021794080734E-05,9.7
43.0830018582641,-77.6758689928697,-4.18024137616158E-05,9.8
43.0830015682719,-77.6758711428717,-4.20007854700089E-05,9.9
43.0830012782641,-77.6758733028697,-4.21013683080673E-05,10
43.0830009882641,-77.6758754528697,-4.23016026616096E-05,10.1
43.0830006982719,-77.6758776028717,-4.25009056925774E-05,10.2
43.0830004082641,-77.6758797628697,-4.25996258854866E-05,10.3
43.0830001182719,-77.6758819128717,-4.28007915616035E-05,10.4
43.0829998282641,-77.6758840728697,-4.29991632699966E-05,10.5
43.0829995382719,-77.6758862228717,-4.30997461080551E-05,10.6
43.0829992482641,-77.6758883828697,-4.32999804615974E-05,10.7
43.0829989582719,-77.6758905328717,-4.33996319770813E-05,10.8
43.0829986682641,-77.6758926928697,-4.3502077460289E-05,10.9
43.0829983782641,-77.6758948428697,-4.37004491686821E-05,11
43.0829980882719,-77.6758969928717,-4.38010320067406E-05,11.1
43.0829977989902,-77.6758991474862,-4.39006835222244E-05,11.2
43.0829975084188,-77.6759013017771,-4.40003350377083E-05,11.3
43.0829972191379,-77.6759034563918,-4.4199638068676E-05,11.4
43.082996928518,-77.6759056106704,-4.42983582615852E-05,11.5
43.082996629617,-77.6759077628394,-4.44008037447929E-05,11.6
43.0829963390428,-77.6759099171296,-4.45004552602768E-05,11.7
43.0829960497646,-77.675912071745,-4.46010380983353E-05,11.8
43.0829957591861,-77.6759142260342,-4.4599175453186E-05,11.9
43.0829954686138,-77.6759163803249,-4.47006896138191E-05,12
43.0829951793337,-77.6759185349398,-4.47984784841537E-05,12.1
43.0829948887607,-77.6759206892304,-4.48999926447868E-05,12.2
43.0829945994813,-77.6759228438454,-4.48999926447868E-05,12.3
43.0829943089077,-77.6759249981358,-4.49996441602707E-05,12.4
43.0829940196289,-77.675927152751,-4.50992956757545E-05,12.5
43.0829937290504,-77.6759293070402,-4.51002269983292E-05,12.6
43.0829934384787,-77.6759314613311,-4.52008098363876E-05,12.7
43.082993149198,-77.6759336159458,-4.5199878513813E-05,12.8
43.0829928586256,-77.6759357702366,-4.5199878513813E-05,12.9
43.0829925693456,-77.6759379248515,-4.53004613518715E-05,13
43.0829922787726,-77.675940079142,-4.53004613518715E-05,13.1
43.0829919894932,-77.6759422337571,-4.52995300292969E-05,13.2
43.0829916989196,-77.6759443880475,-4.53013926744461E-05,13.3
43.0829914096408,-77.6759465426627,-4.52985987067223E-05,13.4
43.0829911190623,-77.6759486969519,-4.54001128673553E-05,13.5
43.0829908284906,-77.6759508512428,-4.54019755125046E-05,13.6
43.0829905392099,-77.6759530058575,-4.53991815447807E-05,13.7
43.0829902486375,-77.6759551601482,-4.54001128673553E-05,13.8
43.0829899593575,-77.6759573147631,-4.53013926744461E-05,13.9
43.0829896687845,-77.6759594690537,-4.53004613518715E-05,14
43.0829893795051,-77.6759616236688,-4.53004613518715E-05,14.1
43.0829890889314,-77.6759637779591,-4.52995300292969E-05,14.2
43.0829887996528,-77.6759659325744,-4.52008098363876E-05,14.3
43.0829885090742,-77.6759680868636,-4.52008098363876E-05,14.4
43.0829882185024,-77.6759702411545,-4.52017411589622E-05,14.5
43.0829879292218,-77.6759723957692,-4.51011583209038E-05,14.6
43.0829876386494,-77.6759745500599,-4.51002269983292E-05,14.7
43.0829873493695,-77.6759767046748,-4.49987128376961E-05,14.8
43.0829870587963,-77.6759788589654,-4.48999926447868E-05,14.9
43.082986769517,-77.6759810135804,-4.48990613222122E-05,15
43.0829864789385,-77.6759831678696,-4.48012724518776E-05,15.1
43.0829861883673,-77.6759853221606,-4.46988269686699E-05,15.2
43.0829858990861,-77.6759874767752,-4.46001067757607E-05,15.3
43.0829856085143,-77.6759896310661,-4.46010380983353E-05,15.4
43.0829853192337,-77.6759917856808,-4.44995239377022E-05,15.5
43.0829850286612,-77.6759939399716,-4.43998724222183E-05,15.6
43.0829847393814,-77.6759960945865,-4.42992895841599E-05,15.7
43.0829844488082,-77.675998248877,-4.4199638068676E-05,15.8
43.082984159529,-77.6760004034921,-4.40003350377083E-05,15.9
43.0829838689504,-77.6760025577813,-4.38978895545006E-05,16
43.0829835783792,-77.6760047120723,-4.37991693615913E-05,16.1
43.0829832890981,-77.6760068666869,-4.37004491686821E-05,16.2
43.0829829985261,-77.6760090209778,-4.34992834925652E-05,16.3
43.0829827092457,-77.6760111755925,-4.33987006545067E-05,16.4
43.0829824186731,-77.6760133298832,-4.32981178164482E-05,16.5
43.0829821293933,-77.6760154844982,-4.30997461080551E-05,16.6
43.08298183882,-77.6760176387887,-4.29991632699966E-05,16.7
43.0829815495409,-77.6760197934038,-4.27989289164543E-05,16.8
43.0829812589623,-77.676021947693,-4.27011400461197E-05,16.9
43.082980968391,-77.676024101984,-4.24981117248535E-05,17
43.08298067911,-77.6760262565986,-4.22988086938858E-05,17.1
43.082980388538,-77.6760284108894,-4.21022996306419E-05,17.2
43.0829800992576,-77.6760305655042,-4.19989228248596E-05,17.3
43.0829798086849,-77.6760327197949,-4.17996197938919E-05,17.4
43.0829795194052,-77.6760348744098,-4.16003167629242E-05,17.5
43.0829792288266,-77.676037028699,-4.13982197642326E-05,17.6
43.0829789382559,-77.6760391829902,-4.11989167332649E-05,17.7
43.0829786489743,-77.6760413376046,-4.09996137022972E-05,17.8
43.0829783584029,-77.6760434918956,-4.0796585381031E-05,17.9
43.0829780691219,-77.6760456465103,-4.05013561248779E-05,18
43.0829777785499,-77.6760478008011,-4.02983278036118E-05,18.1
43.0829774892695,-77.6760499554159,-4.0099024772644E-05,18.2
43.0829771986968,-77.6760521097065,-3.98969277739525E-05,18.3
43.0829769094171,-77.6760542643215,-3.95989045500755E-05,18.4
43.0829766188386,-77.6760564186107,-3.93986701965332E-05,18.5
43.0829763282678,-77.6760585729018,-3.90978530049324E-05,18.6
43.0829760389862,-77.6760607275163,-3.88994812965393E-05,18.7
43.0829757484148,-77.6760628818073,-3.85995954275131E-05,18.8
43.082975459105,-77.6760650364146,-3.83993610739708E-05,18.9
43.0829751588932,-77.6760671882436,-3.809854388237E-05,19
43.0829748696144,-77.6760693428588,-3.77995893359184E-05,19.1
43.0829745790402,-77.676071497149,-3.75984236598015E-05,19.2
43.082974289762,-77.6760736517644,-3.73004004359245E-05,19.3
43.0829739991835,-77.6760758060536,-3.69986519217491E-05,19.4
43.0829737086112,-77.6760779603443,-3.66978347301483E-05,19.5
43.0829734193311,-77.6760801149592,-3.63998115062714E-05,19.6
43.0829731287581,-77.6760822692498,-3.60980629920959E-05,19.7
43.0829728394787,-77.6760844238648,-3.5800039768219E-05,19.8
43.0829725489051,-77.6760865781552,-3.54982912540436E-05,19.9
43.0829722596263,-77.6760887327704,-3.52002680301666E-05,20
43.0829719690478,-77.6760908870596,-3.4799799323082E-05,20.1
43.0829716784761,-77.6760930413505,-3.44971194863319E-05,20.2
43.0829713891954,-77.6760951959652,-3.4199096262455E-05,20.3
43.082971098623,-77.676097350256,-3.37976962327957E-05,20.4
43.082970809343,-77.6760995048708,-3.34996730089188E-05,20.5
43.08297051877,-77.6761016591614,-3.31997871398926E-05,20.6
43.0829702294906,-77.6761038137765,-3.27974557876587E-05,20.7
43.0829699389169,-77.6761059680669,-3.25003638863564E-05,20.8
43.0829696489121,-77.6761081280656,-3.20980325341225E-05,20.9
43.0829693583335,-77.6761102823548,-3.16984951496124E-05,21
43.082969067765,-77.6761124366465,-3.1396746635437E-05,21.1
43.0829687784811,-77.6761145912605,-3.09962779283524E-05,21.2
43.082968487912,-77.676116745552,-3.05967405438423E-05,21.3
43.0829681986288,-77.6761189001661,-3.01990658044815E-05,21.4
43.082967908059,-77.6761210544575,-2.97967344522476E-05,21.5
43.0829676187767,-77.6761232090696,-2.93981283903122E-05,21.6
43.0829673282062,-77.6761253633608,-2.89976596832275E-05,21.7
43.0829670389246,-77.676127517973,-2.85990536212921E-05,21.8
43.082966748346,-77.6761296722622,-2.82004475593567E-05,21.9
43.0829664577775,-77.6761318265539,-2.77962535619736E-05,22
43.0829661684939,-77.6761339811657,-2.73985788226128E-05,22.1
43.0829658779247,-77.6761361354572,-2.68947333097458E-05,22.2
43.0829655886418,-77.6761382900691,-2.64989212155342E-05,22.3
43.082965298072,-77.6761404443605,-2.60965898633003E-05,22.4
43.0829650087897,-77.6761425989726,-2.55992636084557E-05,22.5
43.0829647182112,-77.6761447532618,-2.51950696110725E-05,22.6
43.0829644276433,-77.6761469075536,-2.46968120336533E-05,22.7
43.0829641383591,-77.6761490621653,-2.42963433265686E-05,22.8
43.0829638477905,-77.676151216457,-2.37962231040001E-05,22.9
43.082963558507,-77.6761533710688,-2.33976170420647E-05,23
43.0829632679377,-77.6761555253602,-2.28947028517723E-05,23.1
43.0829629786549,-77.6761576799722,-2.23983079195023E-05,23.2
43.082962688085,-77.6761598342635,-2.18963250517845E-05,23.3
43.0829623988028,-77.6761619888757,-2.14977189898491E-05,23.4
43.0829621082243,-77.6761641431649,-2.09975987672806E-05,23.5
43.0829618176563,-77.6761662974567,-2.04965472221375E-05,23.6
43.0829615283722,-77.6761684520683,-1.99964269995689E-05,23.7
43.0829612378035,-77.67617060636,-1.9497238099575E-05,23.8
43.0829609485201,-77.6761727609718,-1.89971178770065E-05,23.9
43.0829606579508,-77.6761749152633,-1.83964148163795E-05,24
43.082960368668,-77.6761770698753,-1.78972259163857E-05,24.1
43.082960078098,-77.6761792241666,-1.73952430486679E-05,24.2
43.0829597888159,-77.6761813787787,-1.68969854712486E-05,24.3
43.0829594982374,-77.6761835330679,-1.62981450557709E-05,24.4
43.0829592076693,-77.6761856873597,-1.57952308654785E-05,24.5
43.0829589183853,-77.6761878419714,-1.51973217725754E-05,24.6
43.0829586278165,-77.676189996263,-1.4694407582283E-05,24.7
43.0829583385332,-77.6761921508749,-1.40983611345291E-05,24.8
43.0829580479638,-77.6761943051663,-1.35954469442368E-05,24.9
43.0829577586811,-77.6761964597783,-1.2996606528759E-05,25
43.0829574681025,-77.6761986140675,-1.23949721455574E-05,25.1
43.0829571775351,-77.6762007683595,-1.18948519229889E-05,25.2
43.0829568882504,-77.676202922971,-1.12960115075111E-05,25.3
43.0829565976823,-77.6762050772628,-1.06943771243095E-05,25.4
43.0829563083983,-77.6762072318744,-1.0097399353981E-05,25.5
43.0829560178296,-77.6762093861661,-9.51439142227173E-06,25.6
43.0829557285462,-77.6762115407779,-8.90810042619705E-06,25.7
43.0829554379768,-77.6762136950694,-8.30646604299545E-06,25.8
43.0829551486941,-77.6762158496814,-7.69738107919693E-06,25.9
43.0829548581159,-77.6762180039684,-7.08736479282379E-06,26
43.0829545675487,-77.6762201582582,-6.46524131298065E-06,26.1
43.0829542782063,-77.676222312855,-5.83566725254059E-06,26.2
43.0829539780274,-77.6762244646923,-5.20609319210052E-06,26.3
43.082953688745,-77.6762266193044,-4.57745045423508E-06,26.4
43.082953398175,-77.6762287735935,-3.93763184547424E-06,26.5
43.0829531088932,-77.6762309282057,-3.28756868839264E-06,26.6
43.082952818329,-77.6762330823881,-2.6356428861618E-06,26.7
43.0829525270039,-77.676235235492,-1.97440385818481E-06,26.8
43.0829521169113,-77.6762373515688,-1.29546970129013E-06,26.9
43.0829515671639,-77.6762394078293,-6.09084963798523E-07,27
43.0829508555729,-77.6762413695233,-5.12227416038513E-08,27.1
43.082949995726,-77.6762432174254,-4.61935997009277E-07,27.2
43.0829489814772,-77.6762449700794,-8.80099833011627E-07,27.3
43.0829477899742,-77.6762466370409,-1.29919499158859E-06,27.4
43.0829465197679,-77.6762482673058,-1.71829015016556E-06,27.5
43.0829452448729,-77.6762499034441,-2.13179737329483E-06,27.6
43.0829439645459,-77.6762515443744,-2.54157930612564E-06,27.7
43.0829426830669,-77.676253196281,-2.94111669063568E-06,27.8
43.0829413964257,-77.6762548533828,-3.33227217197418E-06,27.9
43.0829400969737,-77.676256504538,-3.73367220163345E-06,28
43.0829388037342,-77.6762581773856,-4.12110239267349E-06,28.1
43.0829374981238,-77.6762598450015,-4.50387597084045E-06,28.2
43.0829361903502,-77.6762615221463,-4.88292425870895E-06,28.3
43.0829348779468,-77.6762632052286,-5.25359064340591E-06,28.4
43.0829335610759,-77.6762648945235,-5.62332570552826E-06,28.5
43.0829322417736,-77.6762665929565,-5.9865415096283E-06,28.6
43.0829309146003,-77.6762682926567,-6.34510070085526E-06,28.7
43.0829295852307,-77.6762700018462,-6.69527798891068E-06,28.8
43.082928250885,-77.6762717164826,-7.04545527696609E-06,28.9
43.0829269081045,-77.6762734315516,-7.38631933927536E-06,29
43.0829255668232,-77.6762751614549,-7.72532075643539E-06,29.1
43.0829242137605,-77.6762768869309,-8.05594027042389E-06,29.2
43.082922862812,-77.6762786281534,-8.38562846183777E-06,29.3
43.0829215068431,-77.6762803747743,-8.70693475008011E-06,29.4
43.08292014182,-77.6762821209599,-9.01613384485245E-06,29.5
43.0829187715398,-77.6762838721825,-9.32533293962479E-06,29.6
43.0829174002906,-77.6762856346611,-9.63639467954636E-06,29.7
43.0829160270157,-77.6762874068495,-9.927898645401E-06,29.8
43.0829146417129,-77.6762891742813,-1.02277845144272E-05,29.9
43.0829132545983,-77.67629095175,-1.05267390608788E-05,30
43.0829118665848,-77.6762927405809,-1.0819174349308E-05,30.1
43.0829104691825,-77.6762945284628,-1.10277906060219E-05,30.2
43.0829090708371,-77.6762963276548,-1.13304704427719E-05,30.3
43.0829076635053,-77.6762981264681,-1.16201117634773E-05,30.4
43.082906258623,-77.676299941484,-1.18305906653404E-05,30.5
43.0829048443752,-77.6763017556204,-1.21202319860458E-05,30.6
43.0829034220394,-77.6763035706816,-1.23213976621628E-05,30.7
43.0829020007604,-77.6763053999414,-1.25309452414513E-05,30.8
43.0829005686443,-77.6763072261229,-1.28215178847313E-05,30.9
43.082899141622,-77.6763090723718,-1.30217522382736E-05,31
43.0828977019776,-77.6763109130149,-1.32219865918159E-05,31.1
43.0828962609599,-77.6763127643223,-1.34222209453583E-05,31.2
43.0828948151889,-77.6763146214129,-1.36243179440498E-05,31.3
43.0828933638614,-77.6763164831158,-1.38226896524429E-05,31.4
43.0828919077725,-77.6763183505927,-1.40257179737091E-05,31.5
43.0828904465689,-77.6763202233223,-1.42240896821022E-05,31.6
43.0828889833984,-77.6763221058578,-1.44122168421745E-05,31.7
43.0828875119022,-77.6763239889828,-1.45239755511284E-05,31.8
43.0828860384162,-77.6763258818874,-1.47130340337753E-05,31.9
43.0828845566277,-77.6763277754104,-1.48247927427292E-05,32
